T(s)	Sa(g)
0	1.602E-01
0.035	2.231E-01
0.061	2.861E-01
0.086	3.490E-01
0.112	4.120E-01
0.559	4.120E-01
0.75	3.072E-01
1.0	2.304E-01
1.5	1.536E-01
2.0	1.152E-01
2.5	9.216E-02
3.0	6.400E-02
4.0	4.000E-02
5.0	3.200E-02
7.5	2.133E-02
10.0	1.600E-02

